wavelength,IRblock,lens,cameraSensor
270,8.06E-07,0,0.368659729
271,-5.94E-07,0,0.370415878
272,1.44E-06,0,0.372612388
273,3.40E-07,0,0.374875687
2.74E+02,1.36E-06,0,0.376810166
275,1.32E-06,3.18E-05,0.381210247
276,-2.85E-07,0.000165049,0.383178922
277,2.68E-06,0.000298342,0.384947572
278,7.24E-07,0.000600397,0.387300977
279,8.54E-07,0.00145205,0.388657761
280,2.40E-06,0.002303703,0.390945039
281,3.58E-06,0.003155356,0.392652002
282,5.38E-06,0.004744446,0.395205528
283,2.13E-05,0.006376809,0.401087917
284,8.09E-05,0.008015886,0.407828727
285,0.000210425,0.013608503,0.415390487
286,0.000460316,0.021522201,0.425563886
287,0.000992679,0.032642396,0.436375692
288,0.001891758,0.046025934,0.447602393
289,0.003110785,0.059099757,0.458321776
290,0.005052075,0.071067292,0.467403516
291,0.010364332,0.093147189,0.475084532
292,0.026514182,0.125759143,0.482971645
293,0.064416869,0.153310787,0.487321222
294,0.123741241,0.182116703,0.491070542
295,0.18586566,0.213168578,0.494583673
296,0.239932318,0.252514404,0.498824239
297,0.293579769,0.299048431,0.503251469
298,0.356694832,0.326352384,0.50748084
299,0.422102222,0.357839159,0.510775602
300,0.475570335,0.402304695,0.518416856
301,0.522187176,0.425444852,0.519016454
302,0.575164795,0.452080847,0.523192247
303,0.622554054,0.472994235,0.527168887
304,0.644647636,0.487972289,0.530911986
305,0.664319,0.50699313,0.534675489
306,0.699889832,0.523644512,0.540674509
307,0.731101723,0.527487155,0.543910727
308,0.761527252,0.531329798,0.547126811
309,0.802119789,0.535172442,0.549328625
310,0.826625633,0.541974723,0.551666657
311,0.836474342,0.553209605,0.553879362
312,0.834369316,0.566193606,0.556345776
313,0.820990906,0.579264996,0.558473289
314,0.83316967,0.595627991,0.560394616
315,0.855516434,0.612719985,0.562972124
316,0.839982834,0.624619134,0.56488598
317,0.829010391,0.627059952,0.56693585
318,0.866607094,0.629500771,0.569460858
319,0.903681755,0.631941589,0.571568467
320,0.904126053,0.634382407,0.574218031
321,0.883432503,0.636837162,0.57810172
322,0.858892326,0.640234447,0.58050143
323,0.853260498,0.643631731,0.582528741
324,0.880024223,0.647029016,0.584133023
325,0.910951042,0.650426301,0.586522458
326,0.92237236,0.655236391,0.588419972
327,0.932832642,0.661782107,0.590318785
328,0.940282631,0.668327823,0.592547463
329,0.924799118,0.674873539,0.594662537
330,0.906378517,0.680391043,0.596810674
331,0.918480339,0.685640076,0.598125197
332,0.942308884,0.690889109,0.600749688
333,0.946070938,0.696138143,0.602705048
334,0.934589806,0.701683761,0.604641906
335,0.933852997,0.707400356,0.607222433
336,0.943105698,0.71311695,0.609117161
337,0.9509412,0.718833545,0.610860605
338,0.954882202,0.724760707,0.612991986
339,0.951450501,0.730974916,0.614751469
340,0.938835106,0.737189124,0.616558642
341,0.930140343,0.743403332,0.617816577
342,0.929727173,0.748384386,0.618889295
343,0.93019783,0.752648436,0.619865948
344,0.921804314,0.756912487,0.622451466
345,0.91715126,0.761176538,0.623745997
346,0.930798073,0.765440588,0.625015763
347,0.953441925,0.769042994,0.626273377
348,0.962440681,0.771804829,0.627168086
349,0.954080772,0.774566665,0.628282914
350,0.942863693,0.7773285,0.629551241
351,0.942290878,0.780090335,0.630818057
352,0.949886971,0.78285217,0.632107639
353,0.960008659,0.784997394,0.632770344
354,0.970198097,0.786255651,0.634081136
355,0.977483788,0.787513908,0.634948485
356,0.977932167,0.788772165,0.635656787
357,0.971810188,0.790030422,0.63680121
358,0.964322739,0.791288679,0.636972347
359,0.956766968,0.792434391,0.63787267
360,0.948348084,0.793283118,0.638517328
361,0.937486496,0.794131845,0.638865509
362,0.928301506,0.794980572,0.639970646
363,0.925609474,0.795829299,0.640110811
364,0.929600945,0.796678026,0.641085772
365,0.937383881,0.79751594,0.641639158
366,0.944768219,0.798034742,0.64206839
367,0.95103138,0.798553545,0.643129561
368,0.957028198,0.799072347,0.643257351
369,0.959947624,0.799591149,0.644312674
370,0.959369164,0.800109952,0.645285617
371,0.956959801,0.800628754,0.64725521
372,0.956617508,0.801254609,0.650323069
373,0.958993111,0.801930351,0.654146991
374,0.960508003,0.802606094,0.661459487
375,0.959549217,0.803281837,0.666255029
376,0.957785797,0.80395758,0.671526042
377,0.958443642,0.804633322,0.677006752
378,0.963317032,0.805447556,0.681788662
379,0.969213715,0.80675007,0.686960452
380,0.97318306,0.808052583,0.692243712
381,0.971991882,0.809355097,0.697257878
382,0.965269432,0.81065761,0.702861963
383,0.954510002,0.811960124,0.708024633
384,0.939236603,0.813262637,0.712751566
385,0.922308731,0.814809985,0.718162774
386,0.907674103,0.816490697,0.723456516
387,0.901207237,0.818171408,0.72877322
388,0.904165001,0.819852119,0.735375961
389,0.912300262,0.821532831,0.741014845
390,0.918443298,0.823213542,0.746040468
391,0.91832531,0.824894253,0.751719935
392,0.915938149,0.8263208,0.757340347
393,0.917330017,0.827736591,0.762129407
394,0.927014961,0.829152382,0.769573023
395,0.942031021,0.830568173,0.77503771
396,0.953471527,0.831983964,0.779768807
397,0.953135796,0.833399755,0.785083514
398,0.940862045,0.834770633,0.790495796
399,0.923714027,0.835896758,0.794551021
400,0.911573219,0.837022882,0.799744414
401,0.908804245,0.838149007,0.804744521
402,0.914576683,0.839275132,0.809053914
403,0.924238281,0.840401257,0.812523138
404,0.933361969,0.841527382,0.816017629
405,0.940478592,0.842525847,0.819351863
406,0.947185936,0.843102438,0.822824929
407,0.955859299,0.843679028,0.82599986
408,0.966014671,0.844255618,0.829460346
409,0.976374054,0.844832209,0.834611357
410,0.983143387,0.845408799,0.838406541
411,0.983355637,0.845985389,0.841359574
412,0.977093658,0.846462145,0.84536593
413,0.967131462,0.846510784,0.848267443
414,0.957367592,0.846559423,0.85233499
415,0.94965023,0.846608062,0.857860023
416,0.945304718,0.846656701,0.86174761
417,0.943113518,0.846705339,0.86475839
418,0.941190605,0.846753978,0.868282594
419,0.93821743,0.846789453,0.871523613
420,0.934513397,0.846273944,0.874978699
421,0.931834412,0.845758435,0.878343672
422,0.931447525,0.845242927,0.881767725
423,0.934669037,0.844727418,0.885184346
424,0.940748749,0.844211909,0.888569254
425,0.947764244,0.8436964,0.892066118
426,0.953541336,0.843180891,0.894966986
427,0.957519989,0.842398382,0.898686679
428,0.959684639,0.841518556,0.901540125
429,0.961501885,0.840638731,0.90472865
430,0.964916878,0.839758905,0.907181725
431,0.969953079,0.83887908,0.909490493
432,0.975014534,0.837999254,0.912404201
433,0.978717423,0.837119429,0.914772297
434,0.979551277,0.83616595,0.917126643
435,0.978497276,0.835052728,0.919481061
436,0.976883888,0.833939506,0.921845368
437,0.977539482,0.832826284,0.924493458
438,0.980944138,0.831713062,0.929595742
439,0.985768509,0.83059984,0.932165209
440,0.98905098,0.829486618,0.934699666
441,0.988142815,0.828373396,0.937234376
442,0.981941719,0.827391097,0.939768528
443,0.972378197,0.826448083,0.942255967
444,0.962204552,0.825505069,0.945404873
445,0.955020065,0.824562055,0.948482623
446,0.951854324,0.823619041,0.950977482
447,0.952166939,0.822676027,0.953508683
448,0.953057175,0.821733013,0.956042303
449,0.950875359,0.820769511,0.958557432
450,0.944742355,0.819602607,0.960593043
451,0.934983139,0.818435702,0.961860921
452,0.92490097,0.817268797,0.960152373
453,0.917858887,0.816101892,0.958737483
454,0.916798782,0.814934988,0.956425269
455,0.921795082,0.813768083,0.954710419
456,0.931438561,0.812601178,0.953336789
457,0.942729225,0.811553195,0.950590212
458,0.952132111,0.810810671,0.949209787
459,0.957673111,0.810068148,0.94753566
460,0.959763603,0.809325625,0.946048894
461,0.959668083,0.808583102,0.948006376
462,0.960412827,0.807840579,0.951746958
463,0.963316727,0.807098055,0.957730805
464,0.969107094,0.806355532,0.964065172
465,0.976509323,0.805848896,0.970402186
466,0.983889046,0.805814709,0.976738434
467,0.989444428,0.805780522,0.983052661
468,0.992101135,0.805746335,0.988533199
469,0.992077827,0.805712149,0.991757128
470,0.990046616,0.805677962,0.99479267
471,0.987353439,0.805643775,0.994148344
472,0.98465683,0.805609588,0.992173633
473,0.982076378,0.805701805,0.988774068
474,0.979224358,0.806178295,0.984900879
475,0.975522995,0.806654784,0.981328381
476,0.971381531,0.807131273,0.9777692
477,0.967365875,0.807607762,0.973501422
478,0.964301872,0.808084251,0.969758219
479,0.963101234,0.80856074,0.965876424
480,0.96467041,0.809037229,0.962123172
481,0.967935143,0.809519691,0.959456828
482,0.972438087,0.81027605,0.962267796
483,0.976641083,0.811032409,0.966552579
484,0.979606552,0.811788768,0.973474735
485,0.98093029,0.812545128,0.979971777
486,0.980723495,0.813301487,0.986422962
487,0.980004158,0.814057846,0.990358988
488,0.979633102,0.814814205,0.993679421
489,0.979951553,0.815570564,0.996829975
490,0.981419678,0.816113399,0.998887885
491,0.982859459,0.816542274,0.998904119
492,0.982692947,0.816971149,0.998898177
493,0.980595703,0.817400023,0.998322835
494,0.975582733,0.817828898,0.998371394
495,0.968326149,0.818257773,0.998374251
496,0.959954071,0.818686648,0.998185994
497,0.952037163,0.819115523,0.99784833
498,0.946439667,0.819512318,0.997843363
499,0.943884659,0.819707134,0.997987686
500,0.944920464,0.81990195,0.998081971
501,0.948879967,0.820096767,0.998568167
502,0.954722137,0.820291583,0.997365315
503,0.961174393,0.820486399,0.996771395
504,0.966873627,0.820681215,0.996769922
505,0.971314545,0.820876031,0.996773127
506,0.974266968,0.821070847,0.996788983
507,0.975766144,0.821364898,0.996188226
508,0.976685257,0.821769099,0.996240267
509,0.977332344,0.8221733,0.996232203
510,0.97801651,0.822577501,0.995869501
511,0.97884613,0.822981702,0.995169155
512,0.979107933,0.823385903,0.994402102
513,0.978649826,0.823790103,0.992736305
514,0.977228508,0.824194304,0.991299755
515,0.97485733,0.824598505,0.989629476
516,0.972412949,0.825050717,0.987743646
517,0.969741364,0.825527653,0.985899423
518,0.967778778,0.82600459,0.984333215
519,0.966616592,0.826481527,0.98288216
520,0.965886993,0.826958464,0.981152269
521,0.965504074,0.827435401,0.979254414
522,0.964519157,0.827912338,0.977447416
523,0.96219677,0.828389274,0.975935986
524,0.95799778,0.828866211,0.974450717
525,0.952482452,0.829391736,0.972671483
526,0.946963501,0.829938803,0.970828721
527,0.942294807,0.830485869,0.968466694
528,0.93992733,0.831032935,0.965662738
529,0.940417366,0.831580002,0.963024354
530,0.944280968,0.832127068,0.959170578
531,0.951395493,0.832674135,0.955297074
532,0.960467644,0.833221201,0.951585435
533,0.969974594,0.833768267,0.94828171
534,0.977880402,0.834227829,0.944498609
535,0.982541771,0.834621261,0.940697762
536,0.982974587,0.835014694,0.936906775
537,0.978936729,0.835408127,0.933515819
538,0.971485748,0.83580156,0.931566245
539,0.962343216,0.836194993,0.929189698
540,0.953615456,0.836588426,0.92855791
541,0.946953621,0.836981859,0.927967799
542,0.943500137,0.837375292,0.927216738
543,0.943806953,0.837717856,0.926911093
544,0.9475383,0.837934389,0.926095276
545,0.953888855,0.838150922,0.925875851
546,0.961041527,0.838367454,0.924832229
547,0.967812614,0.838583987,0.921687293
548,0.972357216,0.838800519,0.92135459
549,0.974489975,0.839017052,0.920485019
550,0.973775482,0.839233584,0.920375911
551,0.970996361,0.839450117,0.919409628
552,0.967260132,0.839666649,0.91909181
553,0.96387497,0.83969967,0.917169079
554,0.961450729,0.839698777,0.915433993
555,0.960869827,0.839697884,0.912316223
556,0.961937332,0.83969699,0.909765867
557,0.96436306,0.839696097,0.907045951
558,0.967098961,0.839695204,0.90423521
559,0.968700943,0.839694311,0.901210885
560,0.968876419,0.839693418,0.898085585
561,0.966898766,0.839692524,0.895173747
562,0.962432137,0.839657123,0.893051589
563,0.956600189,0.839510111,0.890270883
564,0.950479851,0.8393631,0.887416715
565,0.9447369,0.839216088,0.884531344
566,0.941086502,0.839069077,0.881824523
567,0.940128822,0.838922065,0.877206644
568,0.942203636,0.838775054,0.874438553
569,0.947074661,0.838628042,0.871656531
570,0.954086876,0.838481031,0.868584105
571,0.961702614,0.838334019,0.865488094
572,0.968235245,0.838142631,0.862403637
573,0.973258209,0.837899385,0.859274716
574,0.974624367,0.83765614,0.856405356
575,0.972385139,0.837412894,0.853695249
576,0.966891098,0.837169648,0.850458969
577,0.95868515,0.836926402,0.847863476
578,0.949526329,0.836683156,0.841685647
579,0.940467262,0.83643991,0.838874485
580,0.932819366,0.836196665,0.835890571
581,0.927726173,0.835953419,0.833149905
582,0.925742111,0.83562126,0.83088589
583,0.926656265,0.835205702,0.827812093
584,0.930311089,0.834790145,0.825165045
585,0.935693588,0.834374587,0.822110672
586,0.942200584,0.833959029,0.819322542
587,0.948373642,0.833543472,0.816629813
588,0.953490562,0.833127914,0.813644564
589,0.956978607,0.832712356,0.811053657
590,0.958629341,0.832296799,0.808873841
591,0.9590662,0.831881241,0.805739752
592,0.958402748,0.831440909,0.802649499
593,0.957101059,0.830963077,0.799556448
594,0.956771965,0.830485246,0.796567202
595,0.957613182,0.830007414,0.794276366
596,0.960051537,0.829529582,0.791729459
597,0.964170342,0.82905175,0.78894723
598,0.969831581,0.828573918,0.786512654
599,0.976172333,0.828096086,0.784534912
600,0.982784424,0.827618254,0.782741842
601,0.988341026,0.827140422,0.781391544
602,0.992418594,0.826668734,0.777259859
603,0.994429016,0.826250221,0.775572242
604,0.99415081,0.825831707,0.773836943
605,0.991208496,0.825413194,0.772376447
606,0.986808281,0.824994681,0.770829447
607,0.981668434,0.824576167,0.768996576
608,0.976394653,0.824157654,0.7671049
609,0.971873474,0.82373914,0.765408779
610,0.968801117,0.823320627,0.763281344
611,0.967134171,0.822902113,0.760092692
612,0.967126274,0.8224836,0.757285571
613,0.968562546,0.822059037,0.752752842
614,0.971245842,0.821630924,0.7481725
615,0.974339676,0.821202812,0.743699094
616,0.9773246,0.820774699,0.738248536
617,0.979465599,0.820346586,0.733026115
618,0.980215225,0.819918474,0.728885373
619,0.979494972,0.819490361,0.72444184
620,0.977281952,0.819062248,0.720249174
621,0.974301643,0.818634135,0.715895862
622,0.970456505,0.818206023,0.711638522
623,0.966659203,0.81777791,0.707456402
624,0.963680649,0.817284698,0.703543044
625,0.961751175,0.81678979,0.700871685
626,0.961461067,0.816294882,0.697580186
627,0.962878799,0.815799974,0.6952791
628,0.965883904,0.815305066,0.693806674
629,0.969803352,0.814810157,0.69263633
630,0.974562645,0.814315249,0.691410844
631,0.979668007,0.813820341,0.689714334
632,0.984296188,0.813325433,0.68837374
633,0.987898216,0.812830524,0.686848459
634,0.990211983,0.812337828,0.685414131
635,0.990635033,0.811859479,0.683713444
636,0.989352074,0.811381129,0.68250177
637,0.98675457,0.81090278,0.681282206
638,0.983184128,0.810424431,0.678000356
639,0.979197273,0.809946082,0.67660319
640,0.975206299,0.809467732,0.674652044
641,0.971917152,0.808989383,0.672542651
642,0.969486465,0.808511034,0.670582233
643,0.968385658,0.808032685,0.66837586
644,0.96844799,0.807554335,0.666581792
645,0.969652748,0.807079783,0.664289054
646,0.971768532,0.80663797,0.662495901
647,0.974192696,0.806196158,0.660027204
648,0.976889954,0.805754346,0.658038511
649,0.979256859,0.805312534,0.656054927
650,0.980876846,0.804870721,0.654060668
651,0.981500359,0.804428909,0.652074625
652,0.981037407,0.803987097,0.64953531
653,0.979470825,0.803545285,0.64772486
654,0.97699543,0.803103473,0.64550685
655,0.973855629,0.80266166,0.643637968
656,0.97031971,0.802219848,0.641508511
657,0.966761742,0.801797618,0.639486936
658,0.962930717,0.801377999,0.637557712
659,0.959835472,0.800958381,0.634927839
660,0.957421646,0.800538762,0.633503599
661,0.955800285,0.800119144,0.629891999
662,0.954697952,0.799699526,0.627036261
663,0.954314385,0.799279907,0.625020059
664,0.954281998,0.798860289,0.623086631
665,0.954798393,0.79844067,0.621350206
666,0.955618591,0.798021052,0.618874171
667,0.956706429,0.797601433,0.616458762
668,0.958179741,0.797180018,0.613602954
669,0.959499435,0.79675654,0.610802938
670,0.961186028,0.796333061,0.607080619
671,0.962857933,0.795909583,0.60337794
672,0.965334396,0.795486104,0.599959231
673,0.967802162,0.795062626,0.5962732
674,0.970912476,0.794639148,0.593185183
675,0.973899269,0.794215669,0.590076528
676,0.977435493,0.793792191,0.586593733
677,0.980352974,0.793368712,0.582984171
678,0.983007813,0.792945234,0.579925715
679,0.985008659,0.792521756,0.576512053
680,0.985955772,0.792181487,0.570951725
681,0.986000443,0.791855908,0.56800643
682,0.98491581,0.791530329,0.564951896
683,0.982030869,0.79120475,0.562402084
684,0.978408852,0.790879171,0.559854002
685,0.974462471,0.790553592,0.557918782
686,0.969917717,0.790228013,0.555330937
687,0.965249901,0.789902434,0.552795208
688,0.961495361,0.789576855,0.550260656
689,0.95844677,0.789251276,0.547726044
690,0.956689186,0.788925697,0.545191411
691,0.956527443,0.788602698,0.542656541
692,0.957825813,0.788356942,0.540125667
693,0.96026844,0.788111187,0.537853139
694,0.963727531,0.787865431,0.535580701
695,0.967054596,0.787619676,0.533141272
696,0.969137688,0.78737392,0.528791069
697,0.969266815,0.787128165,0.52658791
698,0.965894852,0.786882409,0.524142776
699,0.957498627,0.786636654,0.518525164
700,0.942830009,0.786390898,0.519483665
701,0.920833893,0.786145143,0.517220037
702,0.890794296,0.785899387,0.514889384
703,0.852953682,0.785655587,0.512556168
704,0.806781311,0.785625692,0.510512434
705,0.754003525,0.785595796,0.508771182
706,0.695729561,0.7855659,0.506192211
707,0.633565578,0.785536005,0.504262748
708,0.569962864,0.785506109,0.501701171
709,0.50611515,0.785476214,0.499181081
710,0.443637009,0.785446318,0.497120678
711,0.385049362,0.785416423,0.49482081
712,0.330854702,0.785386527,0.492477953
713,0.281852846,0.785356631,0.490138167
714,0.238788576,0.785326736,0.487807079
715,0.200994835,0.78529684,0.485768892
716,0.168809395,0.785211632,0.483573299
717,0.141727243,0.785110511,0.481946257
718,0.119066272,0.78500939,0.477387672
719,0.100199389,0.784908269,0.47489111
720,0.084640601,0.784807147,0.472352806
721,0.071724005,0.784706026,0.46981885
722,0.06101284,0.784604905,0.467447457
723,0.052178195,0.784503784,0.465833242
724,0.044865942,0.784402663,0.463280428
725,0.038784151,0.784301542,0.460746328
726,0.033657035,0.784200421,0.458211747
727,0.029396302,0.784099299,0.455678442
728,0.025794178,0.784026779,0.453172951
729,0.022743239,0.784011999,0.451702178
730,0.020129991,0.78399722,0.449148125
731,0.017902684,0.78398244,0.446605555
732,0.016005955,0.78396766,0.44407068
733,0.014341977,0.783952881,0.441535554
734,0.012905772,0.783938101,0.438998566
735,0.011650565,0.783923321,0.436719763
736,0.010555064,0.783908541,0.432751341
737,0.00958559,0.783893762,0.430541666
738,0.008736131,0.783878982,0.428201183
739,0.007990268,0.783864202,0.425861322
740,0.007311242,0.783849423,0.423520363
741,0.006714219,0.783918314,0.421133592
742,0.00617728,0.784028534,0.419814947
743,0.005700319,0.784138754,0.417489862
744,0.005266181,0.784248974,0.415160899
745,0.004884387,0.784359195,0.413272703
746,0.004537356,0.784469415,0.410719473
747,0.004225772,0.784579635,0.408137879
748,0.003940568,0.784689855,0.406255973
749,0.003684783,0.784800075,0.404179586
750,0.003443063,0.784910295,0.402144885
751,0.003232584,0.785020515,0.400258604
752,0.003041343,0.785130736,0.39844328
753,0.002866543,0.785240956,0.396652352
754,0.002710857,0.785333606,0.394480519
755,0.002561353,0.785421506,0.392314528
756,0.002433923,0.785509405,0.390606476
757,0.002308111,0.785597305,0.388712296
758,0.002194952,0.785685204,0.386364929
759,0.00210191,0.785773104,0.382567129
760,0.00200532,0.785861003,0.380617475
761,0.001923281,0.785948903,0.378592949
