Data from Transmission_14-29-18-295.txt Node
Date: Mon Sep 08 14:29:18 CEST 2025
User: Ocean Optics
Spectrometer: QEP02356
Trigger mode: 4
Integration Time (sec): 5.000000E-2
Scans to average: 20
Electric dark correction enabled: true
Nonlinearity correction enabled: true
Boxcar width: 0
XAxis mode: Wavelengths
Number of Pixels in Spectrum: 1044
>>>>>Begin Spectral Data<<<<<
194.596	40.28435137
195.4	-14.43849731
196.203	11.30434583
197.007	7.97545805
197.81	0.38171585
198.613	0.46711786
199.417	0.34745541
200.22	0.38348767
201.023	0.47289075
201.826	0.39296055
202.629	0.36899231
203.432	0.30954962
204.235	0.25275593
205.038	0.27514071
205.84	0.21604437
206.643	0.27580203
207.445	0.25136132
208.248	0.2476482
209.05	0.24771275
209.853	0.25601468
210.655	0.18041014
211.457	0.23910666
212.259	0.21318827
213.061	0.20790657
213.863	0.20035463
214.665	0.1757334
215.467	0.16725532
216.269	0.18339604
217.07	0.17730126
217.872	0.15013025
218.674	0.1634399
219.475	0.14622362
220.277	0.13134235
221.078	0.16412143
221.879	0.16258476
222.68	0.13536193
223.481	0.11825486
224.283	0.13140102
225.084	0.12190288
225.884	0.11709459
226.685	0.09730485
227.486	0.08519741
228.287	0.05345244
229.087	0.03614103
229.888	0.0237431
230.688	0.0222487
231.489	0.0276847
232.289	0.03889153
233.089	0.05002082
233.89	0.06616057
234.69	0.06418683
235.49	0.05226269
236.29	0.04982194
237.09	0.05516418
237.89	0.06652395
238.689	0.06072575
239.489	0.06541168
240.289	0.05913076
241.088	0.0584178
241.888	0.04244077
242.687	0.03231101
243.486	0.02323191
244.286	0.02185235
245.085	0.02836271
245.884	0.03750127
246.683	0.03671413
247.482	0.02228142
248.281	0.01557917
249.08	0.01453968
249.878	0.01973515
250.677	0.02903309
251.476	0.04332657
252.274	0.04506151
253.073	0.03503366
253.871	0.02913637
254.67	0.03942148
255.468	0.05739321
256.266	0.06162619
257.064	0.05971692
257.862	0.05850228
258.66	0.05145821
259.458	0.03813998
260.256	0.02918103
261.054	0.01762896
261.851	0.01654937
262.649	0.02337477
263.446	0.03999532
264.244	0.04512104
265.041	0.05033285
265.839	0.0602544
266.636	0.05429906
267.433	0.04658942
268.23	0.04164554
269.027	0.03941935
269.824	0.04161377
270.621	0.04976341
271.418	0.04760847
272.215	0.0436493
273.011	0.03849079
273.808	0.0363843
274.604	0.03942612
275.401	0.04434922
276.197	0.05373356
276.994	0.05553023
277.79	0.05722468
278.586	0.06027408
279.382	0.0632504
280.178	0.06833124
280.974	0.068247
281.77	0.06840422
282.566	0.06234395
283.361	0.06230445
284.157	0.06114071
284.953	0.06293524
285.748	0.06150495
286.544	0.05521438
287.339	0.04979763
288.134	0.05141394
288.93	0.06201487
289.725	0.06298418
290.52	0.06389827
291.315	0.06013706
292.11	0.05858698
292.905	0.06211494
293.699	0.0751772
294.494	0.07736432
295.289	0.06581325
296.083	0.06009243
296.878	0.05654859
297.672	0.04738075
298.467	0.04532843
299.261	0.04010062
300.055	0.04937928
300.849	0.05649542
301.643	0.05804436
302.437	0.0632714
303.231	0.0591896
304.025	0.06324544
304.819	0.06455867
305.612	0.06258589
306.406	0.06988113
307.2	0.07310421
307.993	0.0731891
308.786	0.07779373
309.58	0.07881454
310.373	0.06466087
311.166	0.06629646
311.959	0.05539465
312.752	0.06147774
313.545	0.05655858
314.338	0.07087785
315.131	0.08934319
315.924	0.08264249
316.716	0.08437346
317.509	0.09510339
318.302	0.10056594
319.094	0.09830781
319.886	0.10114357
320.679	0.09695338
321.471	0.09254169
322.263	0.09207708
323.055	0.09879702
323.847	0.09678753
324.639	0.08546372
325.431	0.07259428
326.223	0.07563137
327.015	0.07837505
327.806	0.06914417
328.598	0.0718331
329.389	0.08620046
330.181	0.0781741
330.972	0.08547687
331.763	0.08544158
332.555	0.08235219
333.346	0.0745349
334.137	0.06799242
334.928	0.06657653
335.719	0.071813
336.51	0.07234896
337.3	0.06605432
338.091	0.07416913
338.882	0.07198595
339.672	0.06709181
340.463	0.05914988
341.253	0.06954281
342.043	0.05573293
342.834	0.05329776
343.624	0.05384268
344.414	0.06316858
345.204	0.09068322
345.994	0.07272426
346.784	0.05845967
347.574	0.05679862
348.363	0.06262113
349.153	0.07090465
349.943	0.07477323
350.732	0.06966456
351.521	0.06100969
352.311	0.07237265
353.1	0.07266725
353.889	0.0804785
354.678	0.06923748
355.468	0.06628488
356.257	0.06865326
357.045	0.06238703
357.834	0.06024774
358.623	0.06422423
359.412	0.05149741
360.2	0.05600102
360.989	0.07012117
361.777	0.05402247
362.566	0.05212184
363.354	0.0394645
364.142	0.04262982
364.931	0.05155157
365.719	0.05876149
366.507	0.05232244
367.295	0.06981635
368.083	0.05550867
368.87	0.05661308
369.658	0.06013141
370.446	0.05828443
371.233	0.05309914
372.021	0.05727869
372.808	0.04678762
373.596	0.05432378
374.383	0.05180191
375.17	0.05415235
375.957	0.06483221
376.745	0.05014598
377.532	0.04780187
378.318	0.04858683
379.105	0.03818197
379.892	0.04245303
380.679	0.05719848
381.465	0.04783528
382.252	0.0490156
383.038	0.05210648
383.825	0.0509324
384.611	0.03918052
385.397	0.04231637
386.184	0.0410903
386.97	0.04318574
387.756	0.04685152
388.542	0.04370887
389.328	0.04575244
390.113	0.04748515
390.899	0.04211366
391.685	0.04084981
392.47	0.03853454
393.256	0.03809329
394.041	0.03403545
394.827	0.04571196
395.612	0.03714269
396.397	0.04005495
397.182	0.04792046
397.967	0.03743763
398.752	0.04452275
399.537	0.03908497
400.322	0.04307848
401.107	0.0423378
401.891	0.04513418
402.676	0.04630175
403.461	0.04939879
404.245	0.0482334
405.029	0.045936
405.814	0.0428635
406.598	0.04036411
407.382	0.04396898
408.166	0.04267953
408.95	0.0478829
409.734	0.04676655
410.518	0.04905937
411.302	0.04651234
412.086	0.04393904
412.869	0.05003773
413.653	0.05337478
414.436	0.05108045
415.22	0.05449949
416.003	0.04445415
416.786	0.0488468
417.569	0.0433581
418.353	0.03523817
419.136	0.03330857
419.919	0.03018068
420.701	0.03104772
421.484	0.02927216
422.267	0.02571307
423.05	0.0224188
423.832	0.02572841
424.615	0.02718063
425.397	0.0243334
426.18	0.02404606
426.962	0.02666091
427.744	0.03191995
428.526	0.03719317
429.308	0.04492648
430.09	0.0477334
430.872	0.04754506
431.654	0.04337528
432.436	0.04980291
433.217	0.0451207
433.999	0.0416839
434.781	0.03887792
435.562	0.03986629
436.343	0.04021622
437.125	0.04944439
437.906	0.04752938
438.687	0.04949982
439.468	0.04571189
440.249	0.04364424
441.03	0.04055662
441.811	0.03721553
442.592	0.03555271
443.372	0.03928374
444.153	0.04472611
444.934	0.04738646
445.714	0.04779374
446.494	0.0449854
447.275	0.04250493
448.055	0.03917264
448.835	0.04433748
449.615	0.05092413
450.395	0.06359705
451.175	0.07703467
451.955	0.09047989
452.735	0.10050898
453.515	0.0993583
454.294	0.10456113
455.074	0.1129699
455.853	0.12272736
456.633	0.13406913
457.412	0.14810786
458.191	0.16393112
458.971	0.1615707
459.75	0.15362014
460.529	0.13562384
461.308	0.11395321
462.087	0.11765265
462.865	0.15145703
463.644	0.19688521
464.423	0.22971363
465.201	0.24534141
465.98	0.25845397
466.758	0.26419155
467.537	0.2735112
468.315	0.28123158
469.093	0.29324288
469.871	0.31991719
470.649	0.34610706
471.427	0.36213764
472.205	0.38156444
472.983	0.40178363
473.761	0.43092321
474.538	0.44166666
475.316	0.46914202
476.093	0.51857977
476.871	0.56484849
477.648	0.58084326
478.426	0.58853718
479.203	0.61423848
479.98	0.65696599
480.757	0.719596
481.534	0.78771743
482.311	0.80122322
483.088	0.7561043
483.864	0.6639534
484.641	0.47449834
485.418	0.33089357
486.194	0.33368365
486.971	0.52000402
487.747	0.72559307
488.523	0.66878666
489.3	0.58283383
490.076	0.65724883
490.852	0.91379448
491.628	1.2368606
492.404	1.21756788
493.179	1.03544347
493.955	1.16924506
494.731	1.78586128
495.506	2.84588276
496.282	4.06709379
497.057	5.92422729
497.833	9.38024848
498.608	15.64178125
499.383	27.75037357
500.159	48.53887651
500.934	72.13937982
501.709	89.19667851
502.483	95.69584541
503.258	96.29621001
504.033	96.01161462
504.808	95.5504581
505.582	95.78073885
506.357	96.3811205
507.131	96.47169287
507.906	96.06617132
508.68	96.05183881
509.454	96.20852553
510.228	96.40107802
511.002	96.24794473
511.776	96.00024542
512.55	96.0137504
513.324	96.40683358
514.098	96.35263976
514.872	96.27988223
515.645	96.15036775
516.419	95.99191713
517.192	96.28822216
517.966	96.34286872
518.739	96.30120816
519.512	96.84498203
520.285	96.72285042
521.058	96.41706395
521.831	96.5400873
522.604	96.50373384
523.377	96.45121258
524.15	96.53701663
524.923	96.30102433
525.695	96.68261899
526.468	97.00084108
527.24	96.96988233
528.012	96.5371138
528.785	96.24735489
529.557	96.34713829
530.329	96.37650893
531.101	96.29844427
531.873	96.18279949
532.645	95.12044726
533.417	94.84744915
534.189	95.26730212
534.96	95.79089508
535.732	96.20850124
536.503	96.1981823
537.275	96.37109897
538.046	96.55022608
538.818	96.76006371
539.589	96.41469982
540.36	96.23477219
541.131	96.11678913
541.902	96.08454933
542.673	96.08263294
543.444	96.10616801
544.214	95.88093325
544.985	95.79956313
545.756	95.67427621
546.526	95.159535
547.297	94.44287249
548.067	93.05428644
548.837	90.37883005
549.608	84.88523362
550.378	74.23512151
551.148	60.05578721
551.918	43.79518802
552.688	28.86509781
553.457	17.50814453
554.227	10.45204084
554.997	6.81478307
555.766	4.64888178
556.536	3.16103884
557.305	2.27495263
558.075	1.68855268
558.844	1.32202234
559.613	1.10198369
560.382	0.94731851
561.151	0.84042102
561.92	0.72927017
562.689	0.63466449
563.458	0.57903434
564.227	0.55680509
564.995	0.52566305
565.764	0.49169102
566.532	0.41295848
567.301	0.34795359
568.069	0.30087691
568.837	0.28920671
569.606	0.31120037
570.374	0.31269946
571.142	0.28932956
571.91	0.26061248
572.678	0.24089959
573.445	0.20134485
574.213	0.18207908
574.981	0.19056063
575.748	0.19533894
576.516	0.17824267
577.283	0.16619738
578.05	0.16976136
578.818	0.17559084
579.585	0.1842053
580.352	0.18679897
581.119	0.18678161
581.886	0.17847863
582.653	0.17206569
583.419	0.16567583
584.186	0.16290819
584.953	0.16023535
585.719	0.14993396
586.486	0.14620792
587.252	0.14326073
588.018	0.13489718
588.785	0.12905958
589.551	0.12389032
590.317	0.1084539
591.083	0.10015387
591.849	0.0975402
592.615	0.09393715
593.38	0.09590422
594.146	0.09725274
594.912	0.0928441
595.677	0.07754533
596.443	0.07880334
597.208	0.068616
597.973	0.06504842
598.738	0.05285614
599.504	0.05379206
600.269	0.06174115
601.034	0.07344492
601.798	0.07182892
602.563	0.06975507
603.328	0.0658857
604.093	0.05771497
604.857	0.0496308
605.622	0.04128836
606.386	0.03662028
607.151	0.03805142
607.915	0.04382338
608.679	0.05235868
609.443	0.04930356
610.207	0.04785029
610.971	0.03727653
611.735	0.03698923
612.499	0.04201026
613.262	0.0468805
614.026	0.04900413
614.79	0.05294052
615.553	0.0527172
616.316	0.05536446
617.08	0.0529683
617.843	0.04985473
618.606	0.05098585
619.369	0.05034051
620.132	0.05003999
620.895	0.04745273
621.658	0.05212585
622.421	0.05016942
623.183	0.04933832
623.946	0.04960705
624.709	0.04879734
625.471	0.04809551
626.233	0.04528269
626.996	0.03765004
627.758	0.03197625
628.52	0.03295149
629.282	0.03176987
630.044	0.03631865
630.806	0.03797281
631.568	0.0369506
632.329	0.04396847
633.091	0.04013277
633.853	0.03761426
634.614	0.03864774
635.376	0.03492618
636.137	0.03529891
636.898	0.03329528
637.659	0.03520928
638.42	0.03685645
639.181	0.0368747
639.942	0.03853286
640.703	0.03819446
641.464	0.03770367
642.225	0.03779647
642.985	0.03613502
643.746	0.04254354
644.506	0.03604039
645.267	0.03830683
646.027	0.03666007
646.787	0.03562566
647.547	0.03556546
648.307	0.03517615
649.067	0.03540432
649.827	0.03667654
650.587	0.03316215
651.347	0.03183691
652.106	0.02913529
652.866	0.03126645
653.626	0.03065501
654.385	0.0230435
655.144	0.02995622
655.904	0.02841971
656.663	0.02805891
657.422	0.0317515
658.181	0.03291388
658.94	0.02918532
659.699	0.02879936
660.458	0.02660591
661.216	0.02504971
661.975	0.02979384
662.733	0.03244322
663.492	0.03090555
664.25	0.03087871
665.009	0.02955367
665.767	0.02556367
666.525	0.02264421
667.283	0.0305881
668.041	0.02258322
668.799	0.02455946
669.557	0.02050308
670.314	0.02045326
671.072	0.02490551
671.83	0.02042665
672.587	0.02211027
673.345	0.02029624
674.102	0.02294952
674.859	0.02626392
675.616	0.02965126
676.374	0.03063531
677.131	0.02900383
677.888	0.02412858
678.644	0.02187652
679.401	0.02090513
680.158	0.02136242
680.914	0.01642316
681.671	0.01621455
682.428	0.01445509
683.184	0.01402526
683.94	0.01416738
684.696	0.01682862
685.453	0.02231164
686.209	0.02185715
686.965	0.02286841
687.721	0.0150278
688.476	0.02312946
689.232	0.02200148
689.988	0.01885609
690.743	0.02096603
691.499	0.02127788
692.254	0.01640339
693.01	0.01639577
693.765	0.01735783
694.52	0.02098451
695.275	0.01673099
696.03	0.02072878
696.785	0.02175109
697.54	0.0181563
698.295	0.01762535
699.049	0.01646475
699.804	0.00902441
700.559	0.00972677
701.313	0.01128536
702.067	0.01427037
702.822	0.01545073
703.576	0.01824313
704.33	0.0196859
705.084	0.02188029
705.838	0.01819178
706.592	0.01950487
707.346	0.0163731
708.099	0.02134488
708.853	0.01773079
709.607	0.01785322
710.36	0.0212043
711.113	0.01775226
711.867	0.01615672
712.62	0.02013099
713.373	0.01617782
714.126	0.01625787
714.879	0.01717558
715.632	0.02035561
716.385	0.01759703
717.138	0.01613347
717.89	0.01511559
718.643	0.01856786
719.396	0.0177504
720.148	0.01814207
720.9	0.02403488
721.653	0.0293841
722.405	0.02604601
723.157	0.02459588
723.909	0.0297332
724.661	0.03379288
725.413	0.02953525
726.165	0.03126679
726.916	0.02845141
727.668	0.03417806
728.419	0.03372218
729.171	0.02718188
729.922	0.03167019
730.673	0.03076653
731.425	0.03499321
732.176	0.03422127
732.927	0.03313752
733.678	0.03715117
734.429	0.03036394
735.18	0.03346505
735.93	0.03303882
736.681	0.03312353
737.431	0.04207301
738.182	0.04117988
738.932	0.04397162
739.683	0.04168271
740.433	0.04226139
741.183	0.04037274
741.933	0.04473303
742.683	0.0418207
743.433	0.04652864
744.183	0.04147386
744.933	0.04779164
745.682	0.04678298
746.432	0.04574829
747.181	0.04539103
747.931	0.04514365
748.68	0.04803702
749.429	0.04632044
750.179	0.04726089
750.928	0.04498208
751.677	0.04287783
752.426	0.04148216
753.174	0.05102921
753.923	0.04869393
754.672	0.04813995
755.42	0.04699739
756.169	0.04745893
756.917	0.04576359
757.666	0.04570703
758.414	0.050489
759.162	0.05106253
759.91	0.04571252
760.658	0.04394095
761.406	0.04231863
762.154	0.04600608
762.902	0.04250838
763.65	0.04354445
764.397	0.0370305
765.145	0.03158849
765.892	0.02789489
766.64	0.03179188
767.387	0.03631708
768.134	0.04144642
768.881	0.0387103
769.628	0.04906588
770.375	0.04922786
771.122	0.06338648
771.869	0.05619803
772.616	0.05934888
773.362	0.05839521
774.109	0.05906226
774.855	0.06033782
775.602	0.04964486
776.348	0.05392243
777.094	0.04955781
777.841	0.05280924
778.587	0.04945352
779.333	0.04685544
780.078	0.0570992
780.824	0.05440714
781.57	0.05319144
782.316	0.05486307
783.061	0.0589763
783.807	0.05711919
784.552	0.06346638
785.297	0.05599297
786.043	0.05868663
786.788	0.05776442
787.533	0.05808057
788.278	0.06527246
789.023	0.05561402
789.768	0.05085901
790.512	0.04661658
791.257	0.05080072
792.002	0.05098238
792.746	0.04791695
793.491	0.05124792
794.235	0.05505491
794.979	0.04762
795.723	0.0515258
796.467	0.04702182
797.211	0.03922763
797.955	0.04493403
798.699	0.04018535
799.443	0.04316653
800.187	0.04682356
800.93	0.04506668
801.674	0.04292712
802.417	0.04562544
803.16	0.04771045
803.904	0.04755303
804.647	0.04758712
805.39	0.04721909
806.133	0.0487269
806.876	0.05691024
807.619	0.05238822
808.361	0.05595935
809.104	0.05127763
809.847	0.05658241
810.589	0.05596437
811.332	0.06132502
812.074	0.06064773
812.816	0.06948736
813.558	0.069879
814.301	0.08003395
815.043	0.07295909
815.784	0.07491813
816.526	0.08076757
817.268	0.07571728
818.01	0.07290566
818.751	0.06808053
819.493	0.0756544
820.234	0.06893125
820.976	0.05777976
821.717	0.05577354
822.458	0.04496492
823.199	0.02949353
823.94	0.0138448
824.681	0.0107137
825.422	0.01153257
826.163	0.01473216
826.903	0.0213411
827.644	0.02534496
828.385	0.02635034
829.125	0.018583
829.865	0.0175558
830.606	0.02689142
831.346	0.03591282
832.086	0.04515901
832.826	0.04633124
833.566	0.05093616
834.306	0.04639275
835.046	0.03182417
835.785	0.0231198
836.525	0.02055395
837.264	0.02689923
838.004	0.03593548
838.743	0.04601675
839.482	0.05224331
840.222	0.05510453
840.961	0.05277039
841.7	0.0354485
842.439	0.03740818
843.177	0.04546354
843.916	0.0562353
844.655	0.06271618
845.394	0.07625433
846.132	0.066951
846.87	0.07590402
847.609	0.07298125
848.347	0.07147766
849.085	0.06714325
849.823	0.06820378
850.561	0.07492384
851.299	0.08630111
852.037	0.09966806
852.775	0.0931649
853.513	0.08971674
854.25	0.08718375
854.988	0.09256352
855.725	0.08778655
856.462	0.09413151
857.2	0.08980063
857.937	0.09823813
858.674	0.0891119
859.411	0.08977768
860.148	0.08572239
860.885	0.08021115
861.622	0.08302501
862.358	0.08569674
863.095	0.08388573
863.831	0.07530574
864.568	0.06472572
865.304	0.0657796
866.04	0.06938344
866.776	0.05869913
867.513	0.06126667
868.249	0.06686579
868.984	0.05545157
869.72	0.06252918
870.456	0.05312725
871.192	0.05519552
871.927	0.05479889
872.663	0.04280132
873.398	0.05166981
874.134	0.03469265
874.869	0.03948236
875.604	0.0386669
876.339	0.04558168
877.074	0.02676174
877.809	0.03867583
878.544	0.02906993
879.278	0.0306061
880.013	0.02666366
880.748	0.01782443
881.482	0.01194887
882.217	0.00862142
882.951	0.0040329
883.685	0.00347741
884.419	0.00364116
885.153	0.00571266
885.887	0.00693246
886.621	0.00739465
887.355	0.0120703
888.089	0.01495706
888.822	0.01516474
889.556	0.01176135
890.289	0.01126445
891.023	0.01314644
891.756	0.02103182
892.489	0.01604492
893.222	0.01177682
893.955	0.01460622
894.688	0.01602645
895.421	0.00969778
896.154	0.00745369
896.887	0.00638266
897.619	0.00786312
898.352	0.0071792
899.084	0.01171997
899.817	0.01114788
900.549	0.01560471
901.281	0.01416611
902.013	0.01602731
902.745	0.01987734
903.477	0.01079715
904.209	0.0177111
904.941	0.00553934
905.673	0.00611278
906.404	0.00379966
907.136	0.01120352
907.867	0.01324673
908.599	0.01811573
909.33	0.01789783
910.061	0.01603287
910.792	0.02078468
911.523	0.02710573
912.254	0.02067799
912.985	0.02415679
913.716	0.02237671
914.446	0.01596935
915.177	0.01612741
915.908	0.01342384
916.638	0.00993138
917.368	0.00372262
918.099	0.00543512
918.829	0.00820906
919.559	0.00979689
920.289	0.01348855
921.019	0.01328283
921.748	0.02116574
922.478	0.01181856
923.208	0.0227453
923.937	0.02166759
924.667	0.03030042
925.396	0.02123662
926.126	0.02058315
926.855	0.01796519
927.584	0.03249372
928.313	0.02264476
929.042	0.04694578
929.771	0.02914936
930.5	0.03682377
931.228	0.02330901
931.957	0.03511417
932.686	0.03145578
933.414	0.02963327
934.142	0.03615539
934.871	0.0361972
935.599	0.04130373
936.327	0.03442699
937.055	0.03380136
937.783	0.02783414
938.511	0.03219311
939.239	0.02102763
939.966	0.03796217
940.694	0.02648212
941.421	0.04643568
942.149	0.05686206
942.876	0.04438676
943.603	0.05711309
944.331	0.06346664
945.058	0.05970029
945.785	0.04109139
946.512	0.06387153
947.239	0.04683315
947.965	0.04129988
948.692	0.05043499
949.418	0.04756776
950.145	0.04335507
950.871	0.03929815
951.598	0.03903402
952.324	0.02574298
953.05	0.0331158
953.776	0.04345754
954.502	0.04407728
955.228	0.0550915
955.954	0.05661741
956.68	0.05868338
957.405	0.06434673
958.131	0.07132149
958.856	0.06594621
959.582	0.07496217
960.307	0.07694849
961.032	0.08096398
961.757	0.06521627
962.482	0.07488754
963.207	0.05703927
963.932	0.08582871
964.657	0.11026775
965.381	0.06959713
966.106	0.07726493
966.831	0.07651614
967.555	0.06717042
968.279	0.04906194
969.004	0.04261167
969.728	0.04174179
970.452	0.05326944
971.176	0.05520397
971.9	0.06575503
972.624	0.04889196
973.347	0.06283334
974.071	0.07247448
974.794	0.06022559
975.518	0.0540241
976.241	0.05800322
976.965	0.0556639
977.688	0.04465331
978.411	0.04226328
979.134	0.04204047
979.857	0.02578986
980.58	0.01926012
981.303	0.0214839
982.025	0.02564506
982.748	0.04498887
983.471	0.0627191
984.193	0.06626892
984.915	0.09436107
985.638	0.08313682
986.36	0.08406689
987.082	0.08404931
987.804	0.07722057
988.526	0.0927108
989.248	-6.32125478
989.969	-2.2900758
990.691	-7.09677215
991.413	-4366.66565138
